New Test
Start_angle-0                    End_angle-45                   Start_velocity[kmph]-25                   End_Velocity[m/s]-7                   
 X                    Y                    Z                    Time                
-0.14                -0.00                0.00                 0.04                
-0.28                -0.00                0.00                 0.06                
-0.42                -0.00                0.00                 0.08                
-0.56                -0.00                0.00                 0.10                
-0.69                -0.00                0.00                 0.12                
-0.83                -0.00                0.00                 0.14                
-0.97                -0.00                0.00                 0.16                
-1.11                -0.00                0.00                 0.18                
-1.24                0.00                 0.00                 0.20                
-1.37                0.01                 0.00                 0.22                
-1.51                0.02                 0.00                 0.24                
-1.64                0.03                 0.00                 0.26                
-1.78                0.04                 0.00                 0.28                
-1.91                0.05                 0.00                 0.30                
-2.04                0.07                 0.00                 0.32                
-2.17                0.09                 0.00                 0.34                
-2.31                0.11                 0.00                 0.36                
-2.44                0.13                 0.00                 0.38                
-2.57                0.15                 0.00                 0.40                
-2.69                0.18                 0.00                 0.42                
-2.82                0.21                 0.00                 0.44                
-2.95                0.24                 0.00                 0.46                
-3.07                0.27                 0.00                 0.48                
-3.20                0.31                 0.00                 0.50                
-3.33                0.35                 0.00                 0.52                
-3.45                0.39                 0.00                 0.54                
-3.58                0.44                 0.00                 0.56                
-3.70                0.48                 0.00                 0.58                
-3.83                0.54                 0.00                 0.60                
-3.95                0.59                 0.00                 0.62                
-4.07                0.65                 0.00                 0.64                
-4.19                0.71                 0.00                 0.66                
-4.31                0.77                 0.00                 0.68                
-4.43                0.84                 0.00                 0.70                
-4.54                0.91                 0.00                 0.72                
-4.66                0.98                 0.00                 0.74                
-4.77                1.06                 0.00                 0.76                
-4.88                1.13                 0.00                 0.78                
-4.98                1.22                 0.00                 0.80                
-5.09                1.30                 0.00                 0.82                
-5.19                1.39                 0.00                 0.84                
-5.29                1.48                 0.00                 0.86                
-5.38                1.58                 0.00                 0.88                
-5.48                1.68                 0.00                 0.90                
-5.57                1.78                 0.00                 0.92                
-5.66                1.89                 0.00                 0.94                
-5.74                2.00                 0.00                 0.96                
-5.82                2.11                 0.00                 0.98                
-5.90                2.22                 0.00                 1.00                
-5.98                2.33                 0.00                 1.02                
-6.05                2.45                 0.00                 1.04                
-6.12                2.57                 0.00                 1.06                
-6.19                2.69                 0.00                 1.08                
-6.25                2.81                 0.00                 1.10                
-6.31                2.94                 0.00                 1.12                
-6.36                3.07                 0.00                 1.14                
-6.41                3.20                 0.00                 1.16                
-6.46                3.33                 0.00                 1.18                
-6.50                3.46                 0.00                 1.20                
-6.54                3.59                 0.00                 1.22                
-6.58                3.73                 0.00                 1.24                
-6.61                3.86                 0.00                 1.26                
-6.63                4.00                 0.00                 1.28                
-6.66                4.14                 0.00                 1.30                
-6.68                4.28                 0.00                 1.32                
-6.69                4.42                 0.00                 1.34                
-6.70                4.56                 0.00                 1.36                
-6.71                4.70                 0.00                 1.38                
-6.71                4.84                 0.00                 1.40                
-6.71                4.98                 0.00                 1.42                
-6.70                5.12                 0.00                 1.44                
-6.69                5.26                 0.00                 1.46                
-6.68                5.39                 0.00                 1.48                
-6.66                5.53                 0.00                 1.50                
-6.64                5.67                 0.00                 1.52                
-6.61                5.81                 0.00                 1.54                
-6.58                5.94                 0.00                 1.56                
-6.54                6.08                 0.00                 1.58                
-6.50                6.21                 0.00                 1.60                
-6.46                6.35                 0.00                 1.62                
-6.41                6.48                 0.00                 1.64                
-6.36                6.61                 0.00                 1.66                
-6.31                6.74                 0.00                 1.68                
-6.25                6.86                 0.00                 1.70                
-6.19                6.99                 0.00                 1.72                
-6.12                7.11                 0.00                 1.74                
-6.05                7.23                 0.00                 1.76                
-5.98                7.35                 0.00                 1.78                
-5.90                7.46                 0.00                 1.80                
-5.83                7.58                 0.00                 1.82                
-5.76                7.69                 0.00                 1.84                
-5.68                7.80                 0.00                 1.86                
-5.60                7.90                 0.00                 1.88                
-5.52                8.00                 0.00                 1.90                
-5.44                8.10                 0.00                 1.92                
-5.35                8.20                 0.00                 1.94                
-5.26                8.30                 0.00                 1.96                
-5.16                8.39                 0.00                 1.98                
-5.06                8.48                 0.00                 2.00                
-4.96                8.56                 0.00                 2.02                
-4.85                8.65                 0.00                 2.04                
-4.75                8.73                 0.00                 2.06                
-4.64                8.80                 0.00                 2.08                
-4.53                8.87                 0.00                 2.10                
-4.42                8.94                 0.00                 2.12                
-4.31                9.01                 0.00                 2.14                
-4.19                9.07                 0.00                 2.16                
-4.08                9.13                 0.00                 2.18                
-3.97                9.19                 0.00                 2.20                
-3.85                9.24                 0.00                 2.22                
-3.73                9.29                 0.00                 2.24                
-3.62                9.34                 0.00                 2.26                
-3.50                9.38                 0.00                 2.28                
-3.38                9.42                 0.00                 2.30                
-3.26                9.46                 0.00                 2.32                
-3.13                9.49                 0.00                 2.34                
-3.01                9.52                 0.00                 2.36                
-2.89                9.55                 0.00                 2.38                
-2.77                9.57                 0.00                 2.40                
-2.65                9.59                 0.00                 2.42                
-2.52                9.60                 0.00                 2.44                
-2.40                9.62                 0.00                 2.46                
-2.28                9.62                 0.00                 2.48                
-2.15                9.63                 0.00                 2.50                
-2.03                9.63                 0.00                 2.52                
-1.90                9.63                 0.00                 2.54                
-1.77                9.62                 0.00                 2.56                
-1.65                9.62                 0.00                 2.58                
-1.52                9.60                 0.00                 2.60                
-1.39                9.59                 0.00                 2.62                
-1.26                9.57                 0.00                 2.64                
-1.14                9.55                 0.00                 2.66                
-1.01                9.52                 0.00                 2.68                
-0.89                9.49                 0.00                 2.70                
-0.76                9.46                 0.00                 2.72                
-0.64                9.42                 0.00                 2.74                
-0.52                9.38                 0.00                 2.76                
-0.40                9.34                 0.00                 2.78                
-0.27                9.29                 0.00                 2.80                
-0.15                9.24                 0.00                 2.82                
-0.04                9.18                 0.00                 2.84                
0.08                 9.12                 0.00                 2.86                
0.19                 9.05                 0.00                 2.88                
0.31                 8.98                 0.00                 2.90                
0.42                 8.92                 0.00                 2.92                
0.53                 8.84                 0.00                 2.94                
0.64                 8.77                 0.00                 2.96                
0.75                 8.69                 0.00                 2.98                
0.85                 8.61                 0.00                 3.00                
0.95                 8.53                 0.00                 3.02                
1.05                 8.44                 0.00                 3.04                
1.15                 8.35                 0.00                 3.06                
1.24                 8.26                 0.00                 3.08                
1.34                 8.16                 0.00                 3.10                
1.43                 8.06                 0.00                 3.12                
1.52                 7.95                 0.00                 3.14                
1.60                 7.84                 0.00                 3.16                
1.68                 7.73                 0.00                 3.18                
1.76                 7.62                 0.00                 3.20                
1.84                 7.50                 0.00                 3.22                
1.91                 7.39                 0.00                 3.24                
1.98                 7.27                 0.00                 3.26                
2.04                 7.15                 0.00                 3.28                
2.11                 7.03                 0.00                 3.30                
2.16                 6.90                 0.00                 3.32                
2.22                 6.78                 0.00                 3.34                
2.27                 6.65                 0.00                 3.36                
2.32                 6.52                 0.00                 3.38                
2.36                 6.39                 0.00                 3.40                
2.40                 6.26                 0.00                 3.42                
2.44                 6.13                 0.00                 3.44                
2.47                 5.99                 0.00                 3.46                
2.50                 5.86                 0.00                 3.48                
2.52                 5.72                 0.00                 3.50                
2.54                 5.59                 0.00                 3.52                
2.56                 5.45                 0.00                 3.54                
2.57                 5.32                 0.00                 3.56                
2.58                 5.18                 0.00                 3.58                
2.59                 5.04                 0.00                 3.60                
2.59                 4.90                 0.00                 3.62                
2.59                 4.77                 0.00                 3.64                
2.58                 4.63                 0.00                 3.66                
2.57                 4.49                 0.00                 3.68                
2.56                 4.35                 0.00                 3.70                
2.54                 4.22                 0.00                 3.72                
2.51                 4.08                 0.00                 3.74                
2.49                 3.94                 0.00                 3.76                
2.46                 3.81                 0.00                 3.78                
2.42                 3.68                 0.00                 3.80                
2.38                 3.54                 0.00                 3.82                
2.34                 3.41                 0.00                 3.84                
2.29                 3.28                 0.00                 3.86                
2.24                 3.16                 0.00                 3.88                
2.19                 3.03                 0.00                 3.90                
2.13                 2.90                 0.00                 3.92                
2.07                 2.78                 0.00                 3.94                
2.01                 2.66                 0.00                 3.96                
1.94                 2.54                 0.00                 3.98                
1.86                 2.43                 0.00                 4.00                
1.79                 2.31                 0.00                 4.02                
1.71                 2.20                 0.00                 4.04                
1.63                 2.09                 0.00                 4.06                
1.54                 1.98                 0.00                 4.08                
1.45                 1.88                 0.00                 4.10                
1.36                 1.78                 0.00                 4.12                
1.27                 1.68                 0.00                 4.14                
1.17                 1.58                 0.00                 4.16                
1.07                 1.49                 0.00                 4.18                
0.97                 1.40                 0.00                 4.20                
0.86                 1.31                 0.00                 4.22                
0.75                 1.23                 0.00                 4.24                
0.64                 1.15                 0.00                 4.26                
0.53                 1.07                 0.00                 4.28                
0.42                 1.00                 0.00                 4.30                
0.30                 0.93                 0.00                 4.32                
0.18                 0.86                 0.00                 4.34                
0.06                 0.80                 0.00                 4.36                
-0.06                0.74                 0.00                 4.38                
-0.19                0.68                 0.00                 4.40                
-0.31                0.63                 0.00                 4.42                
-0.44                0.58                 0.00                 4.44                
-0.57                0.54                 0.00                 4.46                
-0.70                0.50                 0.00                 4.48                
-0.83                0.46                 0.00                 4.50                
-0.96                0.43                 0.00                 4.52                
-1.09                0.40                 0.00                 4.54                
-1.23                0.37                 0.00                 4.56                
-1.36                0.35                 0.00                 4.58                
-1.50                0.33                 0.00                 4.60                
-1.64                0.32                 0.00                 4.62                
-1.77                0.31                 0.00                 4.64                
-1.91                0.31                 0.00                 4.66                
-2.05                0.30                 0.00                 4.68                
-2.18                0.31                 0.00                 4.70                
-2.32                0.31                 0.00                 4.72                
