New Test
Start_angle-45                   End_angle-45                   Start_velocity[kmph]-25                   End_Velocity[m/s]-7                   
 X                    Y                    Z                    Time                
-0.14                -0.00                0.00                 0.04                
-0.28                -0.00                0.00                 0.06                
-0.42                -0.00                0.00                 0.08                
-0.56                -0.00                0.00                 0.10                
-0.69                -0.00                0.00                 0.12                
-0.83                -0.00                0.00                 0.14                
-0.97                -0.00                0.00                 0.16                
-1.10                -0.01                0.00                 0.18                
-1.23                -0.02                0.00                 0.20                
-1.36                -0.04                0.00                 0.22                
-1.49                -0.06                0.00                 0.24                
-1.61                -0.08                0.00                 0.26                
-1.74                -0.11                0.00                 0.28                
-1.86                -0.14                0.00                 0.30                
-1.98                -0.17                0.00                 0.32                
-2.10                -0.20                0.00                 0.34                
-2.22                -0.23                0.00                 0.36                
-2.34                -0.27                0.00                 0.38                
-2.46                -0.31                0.00                 0.40                
-2.57                -0.35                0.00                 0.42                
-2.69                -0.39                0.00                 0.44                
-2.81                -0.43                0.00                 0.46                
-2.93                -0.47                0.00                 0.48                
-3.04                -0.51                0.00                 0.50                
-3.16                -0.55                0.00                 0.52                
-3.28                -0.60                0.00                 0.54                
-3.40                -0.65                0.00                 0.56                
-3.53                -0.69                0.00                 0.58                
-3.65                -0.74                0.00                 0.60                
-3.77                -0.79                0.00                 0.62                
-3.89                -0.84                0.00                 0.64                
-4.01                -0.89                0.00                 0.66                
-4.13                -0.94                0.00                 0.68                
-4.26                -0.99                0.00                 0.70                
-4.38                -1.04                0.00                 0.72                
-4.50                -1.09                0.00                 0.74                
-4.62                -1.14                0.00                 0.76                
-4.74                -1.19                0.00                 0.78                
-4.87                -1.24                0.00                 0.80                
-4.99                -1.29                0.00                 0.82                
-5.11                -1.34                0.00                 0.84                
-5.24                -1.39                0.00                 0.86                
-5.36                -1.44                0.00                 0.88                
-5.49                -1.49                0.00                 0.90                
-5.61                -1.54                0.00                 0.92                
-5.74                -1.59                0.00                 0.94                
-5.87                -1.63                0.00                 0.96                
-5.99                -1.68                0.00                 0.98                
-6.12                -1.72                0.00                 1.00                
-6.25                -1.76                0.00                 1.02                
-6.38                -1.80                0.00                 1.04                
-6.51                -1.84                0.00                 1.06                
-6.64                -1.88                0.00                 1.08                
-6.77                -1.92                0.00                 1.10                
-6.90                -1.95                0.00                 1.12                
-7.03                -1.98                0.00                 1.14                
-7.16                -2.01                0.00                 1.16                
-7.30                -2.04                0.00                 1.18                
-7.43                -2.06                0.00                 1.20                
-7.56                -2.09                0.00                 1.22                
-7.70                -2.11                0.00                 1.24                
-7.83                -2.12                0.00                 1.26                
-7.97                -2.14                0.00                 1.28                
-8.10                -2.15                0.00                 1.30                
-8.24                -2.16                0.00                 1.32                
-8.37                -2.17                0.00                 1.34                
-8.51                -2.17                0.00                 1.36                
-8.64                -2.17                0.00                 1.38                
-8.78                -2.17                0.00                 1.40                
-8.91                -2.16                0.00                 1.42                
-9.05                -2.15                0.00                 1.44                
-9.18                -2.14                0.00                 1.46                
-9.32                -2.12                0.00                 1.48                
-9.45                -2.10                0.00                 1.50                
-9.58                -2.08                0.00                 1.52                
-9.71                -2.05                0.00                 1.54                
-9.84                -2.02                0.00                 1.56                
-9.97                -1.98                0.00                 1.58                
-10.10               -1.94                0.00                 1.60                
-10.23               -1.90                0.00                 1.62                
-10.36               -1.85                0.00                 1.64                
-10.48               -1.80                0.00                 1.66                
-10.60               -1.75                0.00                 1.68                
-10.72               -1.69                0.00                 1.70                
-10.84               -1.63                0.00                 1.72                
-10.96               -1.56                0.00                 1.74                
-11.08               -1.50                0.00                 1.76                
-11.19               -1.42                0.00                 1.78                
-11.30               -1.35                0.00                 1.80                
-11.41               -1.27                0.00                 1.82                
-11.52               -1.19                0.00                 1.84                
-11.63               -1.10                0.00                 1.86                
-11.73               -1.01                0.00                 1.88                
-11.83               -0.92                0.00                 1.90                
-11.93               -0.83                0.00                 1.92                
-12.03               -0.73                0.00                 1.94                
-12.12               -0.63                0.00                 1.96                
-12.21               -0.53                0.00                 1.98                
-12.30               -0.42                0.00                 2.00                
-12.38               -0.32                0.00                 2.02                
-12.46               -0.21                0.00                 2.04                
-12.54               -0.09                0.00                 2.06                
-12.61               0.02                 0.00                 2.08                
-12.68               0.14                 0.00                 2.10                
-12.75               0.26                 0.00                 2.12                
-12.82               0.38                 0.00                 2.14                
-12.88               0.50                 0.00                 2.16                
-12.93               0.63                 0.00                 2.18                
-12.99               0.76                 0.00                 2.20                
-13.03               0.89                 0.00                 2.22                
-13.08               1.02                 0.00                 2.24                
-13.12               1.15                 0.00                 2.26                
-13.16               1.28                 0.00                 2.28                
-13.19               1.41                 0.00                 2.30                
-13.22               1.55                 0.00                 2.32                
-13.25               1.69                 0.00                 2.34                
-13.27               1.82                 0.00                 2.36                
-13.29               1.96                 0.00                 2.38                
-13.30               2.10                 0.00                 2.40                
-13.31               2.24                 0.00                 2.42                
-13.32               2.37                 0.00                 2.44                
-13.32               2.51                 0.00                 2.46                
-13.32               2.65                 0.00                 2.48                
-13.31               2.79                 0.00                 2.50                
-13.30               2.93                 0.00                 2.52                
-13.28               3.07                 0.00                 2.54                
-13.26               3.21                 0.00                 2.56                
-13.24               3.34                 0.00                 2.58                
-13.21               3.48                 0.00                 2.60                
-13.18               3.61                 0.00                 2.62                
-13.15               3.75                 0.00                 2.64                
-13.11               3.88                 0.00                 2.66                
-13.06               4.01                 0.00                 2.68                
-13.01               4.14                 0.00                 2.70                
-12.96               4.27                 0.00                 2.72                
-12.91               4.40                 0.00                 2.74                
-12.85               4.53                 0.00                 2.76                
-12.79               4.65                 0.00                 2.78                
-12.72               4.77                 0.00                 2.80                
-12.65               4.89                 0.00                 2.82                
-12.58               5.01                 0.00                 2.84                
-12.50               5.13                 0.00                 2.86                
-12.42               5.24                 0.00                 2.88                
-12.33               5.35                 0.00                 2.90                
-12.25               5.46                 0.00                 2.92                
-12.16               5.57                 0.00                 2.94                
-12.06               5.67                 0.00                 2.96                
-11.97               5.77                 0.00                 2.98                
-11.87               5.87                 0.00                 3.00                
-11.76               5.96                 0.00                 3.02                
-11.66               6.05                 0.00                 3.04                
-11.55               6.14                 0.00                 3.06                
-11.44               6.22                 0.00                 3.08                
-11.33               6.30                 0.00                 3.10                
-11.21               6.38                 0.00                 3.12                
-11.09               6.46                 0.00                 3.14                
-10.97               6.53                 0.00                 3.16                
-10.85               6.59                 0.00                 3.18                
-10.73               6.66                 0.00                 3.20                
-10.60               6.72                 0.00                 3.22                
-10.48               6.77                 0.00                 3.24                
-10.35               6.82                 0.00                 3.26                
-10.22               6.87                 0.00                 3.28                
-10.08               6.92                 0.00                 3.30                
-9.95                6.96                 0.00                 3.32                
-9.82                6.99                 0.00                 3.34                
-9.68                7.02                 0.00                 3.36                
-9.55                7.05                 0.00                 3.38                
-9.41                7.08                 0.00                 3.40                
-9.27                7.10                 0.00                 3.42                
-9.13                7.11                 0.00                 3.44                
-9.00                7.12                 0.00                 3.46                
-8.86                7.13                 0.00                 3.48                
-8.72                7.13                 0.00                 3.50                
-8.58                7.13                 0.00                 3.52                
-8.44                7.13                 0.00                 3.54                
-8.30                7.12                 0.00                 3.56                
-8.16                7.10                 0.00                 3.58                
-8.02                7.09                 0.00                 3.60                
-7.89                7.06                 0.00                 3.62                
-7.75                7.04                 0.00                 3.64                
-7.61                7.01                 0.00                 3.66                
-7.48                6.97                 0.00                 3.68                
-7.34                6.94                 0.00                 3.70                
-7.21                6.89                 0.00                 3.72                
-7.08                6.85                 0.00                 3.74                
-6.95                6.80                 0.00                 3.76                
-6.82                6.74                 0.00                 3.78                
-6.69                6.69                 0.00                 3.80                
-6.57                6.62                 0.00                 3.82                
-6.45                6.56                 0.00                 3.84                
-6.32                6.49                 0.00                 3.86                
-6.20                6.42                 0.00                 3.88                
-6.09                6.34                 0.00                 3.90                
-5.97                6.26                 0.00                 3.92                
-5.86                6.18                 0.00                 3.94                
-5.75                6.09                 0.00                 3.96                
-5.64                6.00                 0.00                 3.98                
-5.54                5.91                 0.00                 4.00                
-5.44                5.81                 0.00                 4.02                
-5.34                5.71                 0.00                 4.04                
-5.24                5.61                 0.00                 4.06                
-5.15                5.50                 0.00                 4.08                
-5.06                5.40                 0.00                 4.10                
-4.97                5.29                 0.00                 4.12                
-4.89                5.17                 0.00                 4.14                
-4.81                5.06                 0.00                 4.16                
-4.74                4.94                 0.00                 4.18                
-4.66                4.82                 0.00                 4.20                
-4.60                4.70                 0.00                 4.22                
-4.53                4.57                 0.00                 4.24                
-4.47                4.44                 0.00                 4.26                
-4.41                4.32                 0.00                 4.28                
-4.36                4.19                 0.00                 4.30                
-4.31                4.06                 0.00                 4.32                
-4.26                3.92                 0.00                 4.34                
-4.22                3.79                 0.00                 4.36                
-4.18                3.65                 0.00                 4.38                
-4.15                3.52                 0.00                 4.40                
-4.12                3.38                 0.00                 4.42                
-4.10                3.24                 0.00                 4.44                
-4.08                3.10                 0.00                 4.46                
-4.06                2.96                 0.00                 4.48                
-4.05                2.82                 0.00                 4.50                
-4.04                2.68                 0.00                 4.52                
-4.03                2.54                 0.00                 4.54                
-4.03                2.40                 0.00                 4.56                
-4.04                2.26                 0.00                 4.58                
-4.05                2.12                 0.00                 4.60                
-4.06                1.98                 0.00                 4.62                
-4.08                1.84                 0.00                 4.64                
-4.10                1.70                 0.00                 4.66                
-4.13                1.56                 0.00                 4.68                
-4.16                1.42                 0.00                 4.70                
-4.19                1.29                 0.00                 4.72                
